 Time, $\theta_1$, $\theta_2$, Energy violation
  0.0000000000000000E+00,  1.0471975511965976E+00, -1.0471975511965976E+00,  0.0000000000000000E+00
  3.9062500000000000E-03,  1.0471420166081340E+00, -1.0471605264010124E+00,  2.2204460492503131E-16
  7.8125000000000000E-03,  1.0469754162882954E+00, -1.0470494334740676E+00,  0.0000000000000000E+00
  1.1718750000000000E-02,  1.0466977605579582E+00, -1.0468642168003457E+00,  0.0000000000000000E+00
  1.5625000000000000E-02,  1.0463090665659713E+00, -1.0466047837046166E+00,  0.0000000000000000E+00
  1.9531250000000000E-02,  1.0458093582102201E+00, -1.0462710044774395E+00,  0.0000000000000000E+00
  2.3437500000000000E-02,  1.0451986660270707E+00, -1.0458627124108029E+00,  0.0000000000000000E+00
  2.7343750000000000E-02,  1.0444770270491590E+00, -1.0453797038436059E+00,  2.2204460492503131E-16
  3.1250000000000000E-02,  1.0436444846314668E+00, -1.0448217382167182E+00,  2.2204460492503131E-16
  3.5156250000000000E-02,  1.0427010882456227E+00, -1.0441885381372991E+00,  2.2204460492503131E-16
  3.9062500000000000E-02,  1.0416468932423524E+00, -1.0434797894519925E+00,  0.0000000000000000E+00
  4.2968750000000000E-02,  1.0404819605819888E+00, -1.0426951413285519E+00, -1.1102230246251565E-16
  4.6875000000000000E-02,  1.0392063565329481E+00, -1.0418342063453825E+00,  2.2204460492503131E-16
  5.0781250000000000E-02,  1.0378201523380597E+00, -1.0408965605884177E+00,  0.0000000000000000E+00
  5.4687500000000000E-02,  1.0363234238486332E+00, -1.0398817437546815E+00,  2.2204460492503131E-16
  5.8593750000000000E-02,  1.0347162511261327E+00, -1.0387892592618062E+00,  0.0000000000000000E+00
  6.2500000000000000E-02,  1.0329987180113174E+00, -1.0376185743627080E+00,  0.0000000000000000E+00
  6.6406250000000000E-02,  1.0311709116606973E+00, -1.0363691202645322E+00,  0.0000000000000000E+00
  7.0312500000000000E-02,  1.0292329220501455E+00, -1.0350402922509065E+00, -1.1102230246251565E-16
  7.4218750000000000E-02,  1.0271848414454916E+00, -1.0336314498064465E+00, -1.1102230246251565E-16
  7.8125000000000000E-02,  1.0250267638399122E+00, -1.0321419167423709E+00, -1.1102230246251565E-16
  8.2031250000000000E-02,  1.0227587843579249E+00, -1.0305709813219874E+00, -1.1102230246251565E-16
  8.5937500000000000E-02,  1.0203809986257721E+00, -1.0289178963847141E+00, -3.3306690738754696E-16
  8.9843750000000000E-02,  1.0178935021079742E+00, -1.0271818794671954E+00,  0.0000000000000000E+00
  9.3750000000000000E-02,  1.0152963894098102E+00, -1.0253621129199690E+00, -3.3306690738754696E-16
  9.7656250000000000E-02,  1.0125897535454695E+00, -1.0234577440180257E+00,  0.0000000000000000E+00
  1.0156250000000000E-01,  1.0097736851715993E+00, -1.0214678850634911E+00,  0.0000000000000000E+00
  1.0546875000000000E-01,  1.0068482717859473E+00, -1.0193916134785395E+00, -1.1102230246251565E-16
  1.0937500000000000E-01,  1.0038135968907780E+00, -1.0172279718865225E+00, -1.1102230246251565E-16
  1.1328125000000000E-01,  1.0006697391207122E+00, -1.0149759681791692E+00, -1.1102230246251565E-16
  1.1718750000000000E-01,  9.9741677133460716E-01, -1.0126345755675827E+00, -1.1102230246251565E-16
  1.2109375000000000E-01,  9.9405475967105894E-01, -1.0102027326146130E+00,  0.0000000000000000E+00
  1.2500000000000000E-01,  9.9058376256707148E-01, -1.0076793432460536E+00,  0.0000000000000000E+00
  1.2890625000000000E-01,  9.8700382973938683E-01, -1.0050632767379493E+00, -1.1102230246251565E-16
  1.3281250000000000E-01,  9.8331500112792447E-01, -1.0023533676771597E+00,  0.0000000000000000E+00
  1.3671875000000000E-01,  9.7951730580071716E-01, -9.9954841589215393E-01,  2.2204460492503131E-16
  1.4062500000000000E-01,  9.7561076081966769E-01, -9.9664718635085747E-01, -1.1102230246251565E-16
  1.4453125000000000E-01,  9.7159537006637919E-01, -9.9364840902219098E-01,  0.0000000000000000E+00
  1.4843750000000000E-01,  9.6747112302723015E-01, -9.9055077869777175E-01,  2.2204460492503131E-16
  1.5234375000000000E-01,  9.6323799353677642E-01, -9.8735295477005813E-01, -1.1102230246251565E-16
  1.5625000000000000E-01,  9.5889593847846399E-01, -9.8405356096302921E-01,  2.2204460492503131E-16
  1.6015625000000000E-01,  9.5444489644152353E-01, -9.8065118501128989E-01,  0.0000000000000000E+00
  1.6406250000000000E-01,  9.4988478633279960E-01, -9.7714437828328471E-01,  2.2204460492503131E-16
  1.6796875000000000E-01,  9.4521550594213022E-01, -9.7353165534408437E-01,  2.2204460492503131E-16
  1.7187500000000000E-01,  9.4043693045974686E-01, -9.6981149345298068E-01,  2.2204460492503131E-16
  1.7578125000000000E-01,  9.3554891094400250E-01, -9.6598233199088845E-01,  0.0000000000000000E+00
  1.7968750000000000E-01,  9.3055127273755756E-01, -9.6204257181229669E-01,  2.2204460492503131E-16
  1.8359375000000000E-01,  9.2544381382996121E-01, -9.5799057451625047E-01,  0.0000000000000000E+00
  1.8750000000000000E-01,  9.2022630316435239E-01, -9.5382466163056079E-01,  2.2204460492503131E-16
  1.9140625000000000E-01,  9.1489847888577724E-01, -9.4954311370314470E-01,  0.0000000000000000E+00
  1.9531250000000000E-01,  9.0946004652836643E-01, -9.4514416929408218E-01,  2.2204460492503131E-16
  1.9921875000000000E-01,  9.0391067713834805E-01, -9.4062602386164240E-01,  2.2204460492503131E-16
  2.0312500000000000E-01,  8.9825000532957477E-01, -9.3598682853517323E-01,  0.0000000000000000E+00
  2.0703125000000000E-01,  8.9247762726792768E-01, -9.3122468876736941E-01, -1.1102230246251565E-16
  2.1093750000000000E-01,  8.8659309858061552E-01, -9.2633766285802677E-01,  2.2204460492503131E-16
  2.1484375000000000E-01,  8.8059593218601595E-01, -9.2132376034095398E-01,  0.0000000000000000E+00
  2.1875000000000000E-01,  8.7448559603930887E-01, -9.1618094022524899E-01,  2.2204460492503131E-16
  2.2265625000000000E-01,  8.6826151078871994E-01, -9.1090710908164307E-01, -1.1102230246251565E-16
  2.2656250000000000E-01,  8.6192304733673242E-01, -9.0550011896408322E-01,  2.2204460492503131E-16
  2.3046875000000000E-01,  8.5546952430012935E-01, -8.9995776515614145E-01,  2.2204460492503131E-16
  2.3437500000000000E-01,  8.4890020536220012E-01, -8.9427778373122579E-01,  0.0000000000000000E+00
  2.3828125000000000E-01,  8.4221429650987500E-01, -8.8845784891489910E-01,  2.2204460492503131E-16
  2.4218750000000000E-01,  8.3541094314794917E-01, -8.8249557023690106E-01, -1.1102230246251565E-16
  2.4609375000000000E-01,  8.2848922708190964E-01, -8.7638848945970427E-01,  2.2204460492503131E-16
  2.5000000000000000E-01,  8.2144816336019455E-01, -8.7013407726961722E-01, -1.1102230246251565E-16
  2.5390625000000000E-01,  8.1428669696598466E-01, -8.6372972971557505E-01, -1.1102230246251565E-16
  2.5781250000000000E-01,  8.0700369934785798E-01, -8.5717276437982803E-01,  0.0000000000000000E+00
  2.6171875000000000E-01,  7.9959796477782585E-01, -8.5046041626375013E-01, -1.1102230246251565E-16
  2.6562500000000000E-01,  7.9206820652441834E-01, -8.4358983337094651E-01,  0.0000000000000000E+00
  2.6953125000000000E-01,  7.8441305282759333E-01, -8.3655807196873755E-01,  2.2204460492503131E-16
  2.7343750000000000E-01,  7.7663104266132266E-01, -8.2936209150795004E-01,  2.2204460492503131E-16
  2.7734375000000000E-01,  7.6872062126875385E-01, -8.2199874917975024E-01,  0.0000000000000000E+00
  2.8125000000000000E-01,  7.6068013545387325E-01, -8.1446479408702932E-01,  2.2204460492503131E-16
  2.8515625000000000E-01,  7.5250782861261856E-01, -8.0675686100660859E-01,  2.2204460492503131E-16
  2.8906250000000000E-01,  7.4420183548541519E-01, -7.9887146371729145E-01,  2.2204460492503131E-16
  2.9296875000000000E-01,  7.3576017661217130E-01, -7.9080498786758302E-01,  2.2204460492503131E-16
  2.9687500000000000E-01,  7.2718075246988623E-01, -7.8255368335576392E-01,  0.0000000000000000E+00
  3.0078125000000000E-01,  7.1846133727224382E-01, -7.7411365619399286E-01,  2.2204460492503131E-16
  3.0468750000000000E-01,  7.0959957240992777E-01, -7.6548085982729153E-01, -1.1102230246251565E-16
  3.0859375000000000E-01,  7.0059295950997447E-01, -7.5665108587772312E-01,  2.2204460492503131E-16
  3.1250000000000000E-01,  6.9143885309235520E-01, -7.4761995428392780E-01,  2.2204460492503131E-16
  3.1640625000000000E-01,  6.8213445280225649E-01, -7.3838290280656593E-01,  2.2204460492503131E-16
  3.2031250000000000E-01,  6.7267679519735024E-01, -7.2893517587134049E-01,  2.2204460492503131E-16
  3.2421875000000000E-01,  6.6306274507088325E-01, -7.1927181272335927E-01,  4.4408920985006262E-16
  3.2812500000000000E-01,  6.5328898629389998E-01, -7.0938763486996681E-01,  2.2204460492503131E-16
  3.3203125000000000E-01,  6.4335201216362492E-01, -6.9927723279422216E-01,  2.2204460492503131E-16
  3.3593750000000000E-01,  6.3324811525034019E-01, -6.8893495192842380E-01,  2.2204460492503131E-16
  3.3984375000000000E-01,  6.2297337674246345E-01, -6.7835487788712823E-01,  0.0000000000000000E+00
  3.4375000000000000E-01,  6.1252365529954900E-01, -6.6753082097279126E-01,  2.2204460492503131E-16
  3.4765625000000000E-01,  6.0189457543635083E-01, -6.5645629998551047E-01,  0.0000000000000000E+00
  3.5156250000000000E-01,  5.9108151547884402E-01, -6.4512452539268184E-01,  2.2204460492503131E-16
  3.5546875000000000E-01,  5.8007959515640217E-01, -6.3352838194635697E-01,  2.2204460492503131E-16
  3.5937500000000000E-01,  5.6888366292468173E-01, -6.2166041087780688E-01, -1.1102230246251565E-16
  3.6328125000000000E-01,  5.5748828315308008E-01, -6.0951279185290563E-01,  2.2204460492503131E-16
  3.6718750000000000E-01,  5.4588772336131153E-01, -5.9707732494178578E-01,  2.2204460492503131E-16
  3.7109375000000000E-01,  5.3407594175468809E-01, -5.8434541294596787E-01,  2.2204460492503131E-16
  3.7500000000000000E-01,  5.2204657539086563E-01, -5.7130804454106310E-01,  0.0000000000000000E+00
  3.7890625000000000E-01,  5.0979292941677856E-01, -5.5795577883970349E-01, -1.1102230246251565E-16
  3.8281250000000000E-01,  4.9730796794901316E-01, -5.4427873216560696E-01, -1.1102230246251565E-16
  3.8671875000000000E-01,  4.8458430734100555E-01, -5.3026656806549399E-01,  2.2204460492503131E-16
  3.9062500000000000E-01,  4.7161421279473248E-01, -5.1590849188286292E-01,  2.2204460492503131E-16
  3.9453125000000000E-01,  4.5838959954314268E-01, -5.0119325159062567E-01, -1.1102230246251565E-16
  3.9843750000000000E-01,  4.4490204016427837E-01, -4.8610914704488173E-01, -1.1102230246251565E-16
  4.0234375000000000E-01,  4.3114278000218248E-01, -4.7064405039838120E-01, -1.1102230246251565E-16
  4.0625000000000000E-01,  4.1710276317757222E-01, -4.5478544111963271E-01, -1.1102230246251565E-16
  4.1015625000000000E-01,  4.0277267228695623E-01, -4.3852045992205474E-01, -1.1102230246251565E-16
  4.1406250000000000E-01,  3.8814298562405669E-01, -4.2183598693370739E-01,  0.0000000000000000E+00
  4.1796875000000000E-01,  3.7320405661750272E-01, -4.0471875064005486E-01,  0.0000000000000000E+00
  4.2187500000000000E-01,  3.5794622115679831E-01, -3.8715547550077067E-01, -1.1102230246251565E-16
  4.2578125000000000E-01,  3.4235993954543970E-01, -3.6913307763698622E-01,  0.0000000000000000E+00
  4.2968750000000000E-01,  3.2643598091026921E-01, -3.5063891951707954E-01,  2.2204460492503131E-16
  4.3359375000000000E-01,  3.1016565888765052E-01, -3.3166113596771696E-01,  2.2204460492503131E-16
  4.3750000000000000E-01,  2.9354112809474459E-01, -3.1218904481697290E-01,  0.0000000000000000E+00
  4.4140625000000000E-01,  2.7655575095829554E-01, -2.9221365559212198E-01,  0.0000000000000000E+00
  4.4531250000000000E-01,  2.5920454344778615E-01, -2.7172828829515627E-01,  0.0000000000000000E+00
  4.4921875000000000E-01,  2.4148470551222631E-01, -2.5072931047980784E-01,  2.2204460492503131E-16
  4.5312500000000000E-01,  2.2339623676614154E-01, -2.2921699355656930E-01,  2.2204460492503131E-16
  4.5703125000000000E-01,  2.0494262936007249E-01, -2.0719647726322252E-01,  2.2204460492503131E-16
  4.6093750000000000E-01,  1.8613161729157554E-01, -1.8467881355373086E-01,  2.2204460492503131E-16
  4.6484375000000000E-01,  1.6697594445953826E-01, -1.6168203748086482E-01,  6.6613381477509392E-16
  4.6875000000000000E-01,  1.4749409338507022E-01, -1.3823218415009847E-01, -1.1102230246251565E-16
  4.7265625000000000E-01,  1.2771089524645124E-01, -1.1436414103101980E-01,  0.0000000000000000E+00
  4.7656250000000000E-01,  1.0765792437511545E-01, -9.0122200355365459E-02,  2.2204460492503131E-16
  4.8046875000000000E-01,  8.7373573285448647E-02, -6.5560166315133880E-02,  2.2204460492503131E-16
  4.8437500000000000E-01,  6.6902714997606277E-02, -4.0740886576914263E-02, -4.4408920985006262E-16
  4.8828125000000000E-01,  4.6295893221936779E-02, -1.5735124779108035E-02,  2.2204460492503131E-16
  4.9218750000000000E-01,  2.5608037843021136E-02,  9.3802298808575470E-03,  2.2204460492503131E-16
  4.9609375000000000E-01,  4.8967749348647407E-03,  3.4524519494806796E-02,  2.2204460492503131E-16
  5.0000000000000000E-01, -1.5779528674254757E-02,  5.9616045246378514E-02,  2.2204460492503131E-16
  5.0390625000000000E-01, -3.6363795805164578E-02,  8.4574900083438195E-02,  2.2204460492503131E-16
  5.0781250000000000E-01, -5.6802139033777996E-02,  1.0932561948233771E-01,  2.2204460492503131E-16
  5.1171875000000000E-01, -7.7045450837370938E-02,  1.3379939933578391E-01,  2.2204460492503131E-16
  5.1562500000000000E-01, -9.7050562004196664E-02,  1.5793571096026549E-01,  4.4408920985006262E-16
  5.1953125000000000E-01, -1.1678091947546726E-01,  1.8168324522430015E-01,  0.0000000000000000E+00
  5.2343750000000000E-01, -1.3620680375791072E-01,  2.0500021419787534E-01,  2.2204460492503131E-16
  5.2734375000000000E-01, -1.5530515699711298E-01,  2.2785410987814197E-01,  2.2204460492503131E-16
  5.3125000000000000E-01, -1.7405911996008733E-01,  2.5022105739686662E-01,  4.4408920985006262E-16
  5.3515625000000000E-01, -1.9245738130689566E-01,  2.7208490716169276E-01,  4.4408920985006262E-16
  5.3906250000000000E-01, -2.1049343186799835E-01,  2.9343619536812382E-01,  4.4408920985006262E-16
  5.4296875000000000E-01, -2.2816479753600455E-01,  3.1427107553551242E-01,  4.4408920985006262E-16
  5.4687500000000000E-01, -2.4547230300180828E-01,  3.3459029380441041E-01,  6.6613381477509392E-16
  5.5078125000000000E-01, -2.6241939897503175E-01,  3.5439825335347708E-01,  2.2204460492503131E-16
  5.5468750000000000E-01, -2.7901156973364449E-01,  3.7370219124554888E-01,  2.2204460492503131E-16
  5.5859375000000000E-01, -2.9525582634370001E-01,  3.9251147497616945E-01,  4.4408920985006262E-16
  5.6250000000000000E-01, -3.1116028328664180E-01,  4.1083701541790801E-01,  2.2204460492503131E-16
  5.6640625000000000E-01, -3.2673381175031557E-01,  4.2869078663547211E-01,  2.2204460492503131E-16
  5.7031250000000000E-01, -3.4198576063535274E-01,  4.4608544000448486E-01,  2.2204460492503131E-16
  5.7421875000000000E-01, -3.5692573565487501E-01,  4.6303399915642240E-01,  2.2204460492503131E-16
  5.7812500000000000E-01, -3.7156342717705004E-01,  4.7954962267524265E-01,  2.2204460492503131E-16
  5.8203125000000000E-01, -3.8590847825420677E-01,  4.9564542259770478E-01,  2.2204460492503131E-16
  5.8593750000000000E-01, -3.9997038531425338E-01,  5.1133432822250835E-01,  4.4408920985006262E-16
  5.8984375000000000E-01, -4.1375842508081512E-01,  5.2662898626396371E-01,  4.4408920985006262E-16
  5.9375000000000000E-01, -4.2728160233367729E-01,  5.4154168984955364E-01,  2.2204460492503131E-16
  5.9765625000000000E-01, -4.4054861406697854E-01,  5.5608433018324432E-01,  4.4408920985006262E-16
  6.0156250000000000E-01, -4.5356782642726751E-01,  5.7026836584795593E-01,  2.2204460492503131E-16
  6.0546875000000000E-01, -4.6634726151416045E-01,  5.8410480569781431E-01,  2.2204460492503131E-16
  6.0937500000000000E-01, -4.7889459171050541E-01,  5.9760420210471643E-01,  6.6613381477509392E-16
  6.1328125000000000E-01, -4.9121713968924319E-01,  6.1077665199222808E-01,  4.4408920985006262E-16
  6.1718750000000000E-01, -5.0332188263481492E-01,  6.2363180363302828E-01,  4.4408920985006262E-16
  6.2109375000000000E-01, -5.1521545953207470E-01,  6.3617886762381870E-01,  4.4408920985006262E-16
  6.2500000000000000E-01, -5.2690418062813471E-01,  6.4842663080196006E-01,  2.2204460492503131E-16
  6.2890625000000000E-01, -5.3839403837375688E-01,  6.6038347214697890E-01,  6.6613381477509392E-16
  6.3281250000000000E-01, -5.4969071931047730E-01,  6.7205737993106063E-01,  4.4408920985006262E-16
  6.3671875000000000E-01, -5.6079961649571897E-01,  6.8345596955701415E-01,  6.6613381477509392E-16
  6.4062500000000000E-01, -5.7172584215737121E-01,  6.9458650165928182E-01,  6.6613381477509392E-16
  6.4453125000000000E-01, -5.8247424034713891E-01,  7.0545590015095361E-01,  4.4408920985006262E-16
  6.4843750000000000E-01, -5.9304939942278245E-01,  7.1607076998355412E-01,  6.6613381477509392E-16
  6.5234375000000000E-01, -6.0345566423671271E-01,  7.2643741445152499E-01,  6.6613381477509392E-16
  6.5625000000000000E-01, -6.1369714794510433E-01,  7.3656185192374901E-01,  6.6613381477509392E-16
  6.6015625000000000E-01, -6.2377774337999159E-01,  7.4644983192329151E-01,  4.4408920985006262E-16
  6.6406250000000000E-01, -6.3370113394850780E-01,  7.5610685050624515E-01,  6.6613381477509392E-16
  6.6796875000000000E-01, -6.4347080403993639E-01,  7.6553816491313287E-01,  6.6613381477509392E-16
  6.7187500000000000E-01, -6.5309004893368650E-01,  7.7474880748329744E-01,  4.4408920985006262E-16
  6.7578125000000000E-01, -6.6256198421056944E-01,  7.8374359883532208E-01,  6.6613381477509392E-16
  6.7968750000000000E-01, -6.7188955467654343E-01,  7.9252716032574388E-01,  6.6613381477509392E-16
  6.8359375000000000E-01, -6.8107554281295479E-01,  8.0110392580491596E-01,  6.6613381477509392E-16
  6.8750000000000000E-01, -6.9012257677068045E-01,  8.0947815269342915E-01,  4.4408920985006262E-16
  6.9140625000000000E-01, -6.9903313792779742E-01,  8.1765393240550921E-01,  6.6613381477509392E-16
  6.9531250000000000E-01, -7.0780956803175510E-01,  8.2563520014761371E-01,  6.6613381477509392E-16
  6.9921875000000000E-01, -7.1645407594770028E-01,  8.3342574412136794E-01,  6.6613381477509392E-16
  7.0312500000000000E-01, -7.2496874403477962E-01,  8.4102921416021692E-01,  6.6613381477509392E-16
  7.0703125000000000E-01, -7.3335553417204358E-01,  8.4844912982891596E-01,  6.6613381477509392E-16
  7.1093750000000000E-01, -7.4161629345510049E-01,  8.5568888801436571E-01,  6.6613381477509392E-16
  7.1484375000000000E-01, -7.4975275958400023E-01,  8.6275177003543058E-01,  1.1102230246251565E-15
  7.1875000000000000E-01, -7.5776656596201986E-01,  8.6964094829834149E-01,  8.8817841970012523E-16
  7.2265625000000000E-01, -7.6565924652413075E-01,  8.7635949252313694E-01,  1.1102230246251565E-15
  7.2656250000000000E-01, -7.7343224031297764E-01,  8.8291037556539387E-01,  8.8817841970012523E-16
  7.3046875000000000E-01, -7.8108689581923041E-01,  8.8929647885626650E-01,  1.1102230246251565E-15
  7.3437500000000000E-01, -7.8862447510218669E-01,  8.9552059748262947E-01,  8.8817841970012523E-16
  7.3828125000000000E-01, -7.9604615770553977E-01,  9.0158544492791515E-01,  8.8817841970012523E-16
  7.4218750000000000E-01, -8.0335304438227428E-01,  9.0749365749306987E-01,  6.6613381477509392E-16
  7.4609375000000000E-01, -8.1054616064173701E-01,  9.1324779841593196E-01,  6.6613381477509392E-16
  7.5000000000000000E-01, -8.1762646013104290E-01,  9.1885036170626788E-01,  6.6613381477509392E-16
  7.5390625000000000E-01, -8.2459482786213267E-01,  9.2430377571268962E-01,  1.1102230246251565E-15
  7.5781250000000000E-01, -8.3145208329498910E-01,  9.2961040643672177E-01,  8.8817841970012523E-16
  7.6171875000000000E-01, -8.3819898328675568E-01,  9.3477256060839331E-01,  8.8817841970012523E-16
  7.6562500000000000E-01, -8.4483622491577637E-01,  9.3979248853688624E-01,  8.8817841970012523E-16
  7.6953125000000000E-01, -8.5136444818889123E-01,  9.4467238674899345E-01,  8.8817841970012523E-16
  7.7343750000000000E-01, -8.5778423863968201E-01,  9.4941440042740566E-01,  1.1102230246251565E-15
